##TITLE=NMReady_1D_1H_20210302_quinine_4
##JCAMP-DX=5.01 $$ Nanalysis NMReady vTODO
##DATA TYPE=NMR FID
##DATA CLASS=NTUPLES
##ORIGIN=Nanalysis Corp.
##OWNER=Nanalysis
##LONG DATE=2021/03/02 14:25:40-0700
##SPECTROMETER/DATA SYSTEM=NMReady 60/nanalysis-oc20
##INSTRUMENTAL PARAMETERS=^1H
##TEMPERATURE=35.000000
##PRESSURE=1.000000  $$ Bar
##RESOLUTION=0.00049940480000
##SAMPLE DESCRIPTION=Brief description of the sample here
##.OBSERVE FREQUENCY=100.11874408734452
##.OBSERVE NUCLEUS=^1H
##.SOLVENT NAME=Chloroform-d
##.ACQUISITION MODE=SIMULTANEOUS
##.SHIFT REFERENCE=INTERNAL, Chloroform-d, 2048, 5.00000000000000
##.SOLVENT REFERENCE=5.00000000000000
##.PULSE SEQUENCE=Signal
##.DELAY=(0.000000,0.000000)
##.FIELD=0.000000  $$ Tesla
##.OBSERVE 90=15.716529
##.ACQUISITION TIME=2.04556206080000
##.ZERO FILL=0
##.AVERAGES=4
##.DIGITISER RES=16
##.SPINNING RATE=0.000000
$$##.PHASE 0=164.03454589843750
$$##.PHASE 1=-92.00000000000000
$$ NMReady specific parameters
##$SCANS=4
##$SCAN DELAY=1.000000
##$TOTAL DURATION=12.252771
##$X_PULSE=0.000000
##$RECVR_GAIN=50.0
##$SPECTRAL WIDTH=20.000087
##$RELAXATIONDELAY=3.054551
##$ZEROING=7.000000
##$APODIZATION=0.000000
##$PHASECORRECTION=164.034546,-92.000000
##$PIVOT=-0.043854
##$DT=0.000499
##$LOCKOFFSET=7.260000
##$SPECTRALCENTER=5.000000
##$DECIMATION=1
##$LOWESTF2=-500.598098
##$T2NUCLEUS=1H
##$PULSE_AMPLITUDE=85.000000
##$EXPERIMENT=1D
##$PLOTTYPE=1D
##$GYRO=42575500.000000
##$INTEGRALSTHRESHOLDMULTIPLIER=0.5
##$RDC_ENABLED=1
##$RDC_TYPE=FivePar
##$RDC_PARAMETERS=(0.88405456690090500337930735,26.68004961658550300285242,
1.9378342501229153249653336,0.65170212353325751575283675,
0.75073635551132478216374011)
##$APPLICATIONPARAMETER_RECEIVER_GAIN=50.0
##$APPLICATIONPARAMETER_RECEIVER_GAIN_FIXED_OR_AUTO=Fixed
##$APPLICATIONPARAMETER_DUMMY_SCANS=0
##$APPLICATIONPARAMETER_PULSE_ANGLE_DEGREES=80.0
$$ End of NMReady specific parameters
$$ Bruker specific parameters
$$ --------------------------
##$DATE=1614720340
##$SI= 32768
##$TDeff= 4096
##$SFO1= 100.11874408734452
##$O1= 500.59372043672261
##$SF= 100.11824349362409
##$BF1= 100.11824349362409
##$AQ= 2.04556206080000
##$SWH= 2002.38363748205870
##$SW= 20.00008745350582
##$SR= 0.00000000000000
##$OFFSET= 15.00011872725637
##$FIDRES= 0.48886319274464
##$O1P= 5.00000000000000
##$TD= 8192
##$DW= 249.70240000000001
##$SPECTYP= PROTON
##$NS= 4
##$DS= 0
##$DR= 16
##$DE=-0.482400
##$RG=50
##$P1=0.000000
##$P= (0..2)
0.0 0.000000
##$PHC0=-210.03454589843750
##$PHC1=92.00000000000000
##$PH_mod=1
##$WDW=1
##$LB=0.00000000000000
$$ End of Bruker specific parameters
$$ ---------------------------------
##NPOINTS=4096
##DELTAX=0.0004994048
##NTUPLES=NMR FID
##VAR_NAME=TIME,FID/REAL,FID/IMAG,PAGE NUMBER
##SYMBOL=X,R,I,N
##VAR_TYPE=INDEPENDENT,DEPENDENT,DEPENDENT,PAGE
##VAR_FORM=AFFN,AFFN,AFFN,AFFN
##VAR_DIM=4096,4096,4096,2
##UNITS=SECONDS,ARBITRARY UNITS,ARBITRARY UNITS,
##FIRST=0.000000,-12579.334163,-3293.708028,1
##LAST=2.045562,13.173023,-47.422878,2
##MIN=0.000000,-52159.908186,-19878.252122,1
##MAX=2.045562,17619.571898,14434.635241,2
##FACTOR=0.00049940480000000001,0.00002428885732078813,0.00002428885732078813,1
##PAGE=N=1
##DATA TABLE= (X++(R..R)), XYDATA
      0.00000000     -517905556    -2147482999     -901597641      179005696
     16.00000000      725417901      218517690     -393853179     -665104755
     32.00000000     -310803688      117493285      281062089       84565528
     48.00000000      -86701994       -6951355      234447539      280503076
     64.00000000      -40072834     -543976315     -813421068     -618494511
     80.00000000     -155082422      171697418      111955992     -225348172
     96.00000000     -477547786     -415706382     -117727904      165816191
    112.00000000      278166572      260694429      224935043      171093590
    128.00000000       24731699     -238517251     -498330197     -590485974
    144.00000000     -459577570     -227168175      -57458221      -49268164
    160.00000000     -169683956     -303332377     -350805872     -267611772
    176.00000000      -81394377      173062277      419023848      576922193
    192.00000000      562845921      357445663       39736767     -237619824
    208.00000000     -347599401     -279763464     -149475644      -94529793
    224.00000000     -128528570     -162345064      -85440005       59049633
    240.00000000      140404346       84523164      -19846567       -4827869
    256.00000000      192307878      441570254      533781636      376881846
    272.00000000       58314728     -208210761     -292798981     -223390188
    288.00000000     -158050812     -203262798     -317588764     -378621214
    304.00000000     -304821891     -155550017      -44323287      -47653610
    320.00000000     -104430570      -71080869      101293526      327744455
    336.00000000      447414320      335664263       70253023     -181128669
    352.00000000     -296459431     -279691208     -205626769     -145832369
    368.00000000     -111160575      -95307112     -105927811     -136407880
    384.00000000     -169701554     -157160587      -43405725      171677266
    400.00000000      400173116      505239199      437714669      235677407
    416.00000000       19400662     -118686779     -165142650     -148261491
    432.00000000     -118318516     -114666622     -128351058     -169348165
    448.00000000     -230278940     -298453142     -306570271     -197497086
    464.00000000       22690274      244826630      353626085      308351836
    480.00000000      177619350       61820733        9300855       14416634
    496.00000000       -3969118      -72504676     -147707755     -183302036
    512.00000000     -174929499     -165353487     -201857266     -238844886
    528.00000000     -211949131      -77042007      123304428      282625106
    544.00000000      324389890      253251488      151104322      113986023
    560.00000000      142102044      157296802      108298061       -8351087
    576.00000000     -132746872     -217283280     -253252496     -277943530
    592.00000000     -301234846     -274405579     -171634385       -4559033
    608.00000000      138909360      178607321      113829491       23000294
    624.00000000        5839530       84395455      168229178      150647621
    640.00000000       29449487     -133267609     -226000615     -228340210
    656.00000000     -186298109     -186677554     -253590897     -312277683
    672.00000000     -282333320     -141129265       43338984      171156638
    688.00000000      212134660      176267990      135161027      122320685
    704.00000000      115829400       92963189       40143894      -28312777
    720.00000000      -97339903     -150469325     -178232049     -210950903
    736.00000000     -220084946     -192827889     -139088662      -78636465
    752.00000000      -25494056       29138433      102647148      188225313
    768.00000000      270135703      291999872      222821707      114070260
    784.00000000       10597359      -41461686      -39533753      -34937312
    800.00000000      -72982444     -138847098     -185190002     -194175839
    816.00000000     -143504519      -40295166       54143052      122254254
    832.00000000      150427804      168210818      190778935      214425948
    848.00000000      234406400      210618518      152062240       55527257
    864.00000000      -33430673      -93256229      -94751692      -61997410
    880.00000000      -18864326       -5495132       -7221924      -10330620
    896.00000000       32066793      129124210      242679336      325371300
    912.00000000      337915264      305028278      252250515      205252247
    928.00000000      152562151       91370709       30726830      -31463235
    944.00000000      -91353154     -142975540     -162792577     -135937451
    960.00000000      -78070896      -17956058       41593356       82223436
    976.00000000      124358874      187810416      251049374      294931156
    992.00000000      299161800      250464150      165024789       98623980
   1008.00000000       42058440       14985999       -6429409      -44338322
   1024.00000000     -106308998     -161600641     -150648831      -82583113
   1040.00000000       21565455       95344193      141900110      164754727
   1056.00000000      157340488      152438933      148972903      135364708
   1072.00000000      132235405      110241905       54447739      -21799803
   1088.00000000     -101464834     -153614120     -175254185     -154264399
   1104.00000000     -121553926      -70514559      -20844451       32575960
   1120.00000000       79131606      131636745      176894244      199089060
   1136.00000000      187130625      135778153       97962356       68190036
   1152.00000000       38366454      -24368513      -99034001     -156071640
   1168.00000000     -170266441     -139288849     -126797197     -116510731
   1184.00000000     -100265245      -46456323       43889712      126561981
   1200.00000000      173228247      162178849      131709358       98951560
   1216.00000000       92674672       84891799       44536407      -25093964
   1232.00000000     -104573774     -146661916     -149772955     -131475985
   1248.00000000     -129692028     -127528602     -117455737      -47844615
   1264.00000000       57680432      154677299      188385297      162826655
   1280.00000000      123243956      100251706      100698603       98115045
   1296.00000000       63305926       23518509      -28848289      -61153142
   1312.00000000     -101862024     -143003970     -173161974     -168322629
   1328.00000000      -90312079       21353104      117897650      141260336
   1344.00000000      108112300       67659731       76498621      129744285
   1360.00000000      176160895      157107516       64414271      -49106706
   1376.00000000     -125910225     -134050128     -116065129     -102673280
   1392.00000000     -113120982     -112415638      -69336645        1927103
