##TITLE=NMReady_1D_1H_20210909_Test_formates
##JCAMP-DX=5.01 $$ Nanalysis NMReady v2.2.4.5
##DATA TYPE=NMR FID
##DATA CLASS=NTUPLES
##ORIGIN=Nanalysis Corp.
##OWNER=Nanalysis
##LONG DATE=2021/09/09 15:54:27+0200
##SPECTROMETER/DATA SYSTEM=NMReady 60/nanalysis-X580
##INSTRUMENTAL PARAMETERS=^1H
##TEMPERATURE=33.000042
##PRESSURE=1.000000  $$ Bar
##RESOLUTION=0.00001999999949
##SAMPLE DESCRIPTION=None
##.OBSERVE FREQUENCY=60.05649983018314
##.OBSERVE NUCLEUS=^1H
##.SOLVENT NAME=D2O
##.ACQUISITION MODE=SIMULTANEOUS
##.SHIFT REFERENCE=INTERNAL, D2O, 1024, 5.00000000000000
##.SOLVENT REFERENCE=5.00000000000000
##.PULSE SEQUENCE=1D
##.DELAY=(0.000000,0.000000)
##.FIELD=1.410588  $$ Tesla
##.OBSERVE 90=16.574221
##.ACQUISITION TIME=2.78391992967227
##.ZERO FILL=0
##.AVERAGES=4
##.DIGITISER RES=16
##.SPINNING RATE=0.000000
$$##.PHASE 0=-9.81411838531494
$$##.PHASE 1=-74.02598571777344
$$ NMReady specific parameters
##$SCANS=4
##$SCAN DELAY=1.042978
##$TOTAL DURATION=18.606382
##$X_PULSE=17.528049
##$RECVR_GAIN=14
##$SWEEP WIDTH=12.000000
##$RELAXATIONDELAY=1.823338
##$ZEROING=7.000000
##$APODIZATION=0.100000
##$PHASECORRECTION=-9.814118,-74.025986
##$PIVOT=0.000000
##$DT=0.000020
##$LOCKOFFSET=7.260000
##$SPECTRALCENTER=5.000000
##$DECIMATION=68
##$LOWESTF2=-67.364569
##$T2NUCLEUS=1H
##$PULSE_AMPLITUDE=13.000000
##$PLOTTYPE=1D
##$INTEGRALS IS MANUAL=False
##$INTEGRALS REFERENCE ENERGY=8657.765897250543
##$DecouplingSettingsType=2
##$DecouplingSettingsTypeName=BBWaltz16
##$DecouplingSettingsMode=0
##$DecouplingSettingsModeName=Off
##$RDC_ENABLED=1
##$RDC_TYPE=CONT5PAR
##$RDC_DATA=(0.410740,9.064017,5.168603,0.894114,1.021772)
$$ End of NMReady specific parameters
$$ Bruker specific parameters
$$ --------------------------
##$DATE=1631195667
##$SI= 16384
##$TDeff= 2048
##$SFO1= 60.05649983018314
##$O1= 300.28249915091567
##$SF= 60.05619954768398
##$BF1= 60.05619954768398
##$AQ= 2.78391992967227
##$SWH= 735.29413622215111
##$SW= 12.24337312865855
##$SR= 0.00000000000000
##$OFFSET= 11.12174217317201
##$FIDRES= 0.35903033995222
##$O1P= 5.00000000000000
##$TD= 4096
##$DW= 679.99998282175511
##$SPECTYP= PROTON
##$NS= 4
##$DS= 0
##$DR= 16
##$DE=1.042978
##$RG=14
##$P1=17.528049
##$P= (0..2)
0.0 17.528049
##$PHC0= -27.19887447357178
##$PHC1= 74.02598571777344
##$PH_mod= 1
##$WDW= 1
##$LB= 0.10000000149012
$$ End of Bruker specific parameters
$$ ---------------------------------
##NPOINTS=2048
##DELTAX=0.0013600000
##NTUPLES=NMR FID
##VAR_NAME=TIME,FID/REAL,FID/IMAG,PAGE NUMBER
##SYMBOL=X,R,I,N
##VAR_TYPE=INDEPENDENT,DEPENDENT,DEPENDENT,PAGE
##VAR_FORM=AFFN,AFFN,AFFN,AFFN
##VAR_DIM=2048,2048,2048,2
##UNITS=SECONDS,ARBITRARY UNITS,ARBITRARY UNITS,
##FIRST=0.000000,2769.710329,239.903809,1
##LAST=2.783920,0.000003,0.000016,2
##MIN=0.000000,-2288.846018,-2304.860963,1
##MAX=2.783920,2769.710329,2542.647818,2
##FACTOR=0.00135999996564351022,0.00000128974726632951,0.00000128974726632951,1
##PAGE=N=1
##DATA TABLE= (X++(R..R)), XYDATA
      0.00000000     2147483000      763978324    -1386977481    -1774646924
      4.00000000     -186886410     1466424636     1412018051     -176317503
      8.00000000    -1486714090    -1103299021      478784106     1459605062
     12.00000000      778601928     -740897429    -1366322188     -440115635
     16.00000000      944419763     1217193070      112727611    -1088843179
     20.00000000    -1024539476      198968031     1166670296      789090129
     24.00000000     -470212928    -1171999571     -528359463      696784512
     28.00000000     1107700894      253253538     -864019586     -981346589
     32.00000000       16527894      967730106      802743122     -265500463
     36.00000000    -1005084998     -590361369      481585331      981044251
     40.00000000      361030411     -653843750     -903485507     -125395374
     44.00000000      777867489      778140887      -97968777     -845386865
     48.00000000     -617697210      298430455      857164489      437212809
     52.00000000     -461052317     -819469888     -245010300      585200481
     56.00000000      738832362       54857404     -668927779     -621042312
     60.00000000      124812213      708794616      480253049     -284899766
     64.00000000     -708139668     -322766281      414294060      666202130
     68.00000000      165796983     -510921246     -594627542       -9542447
     72.00000000      572710067      494848712     -135241623     -598357763
     76.00000000     -377725822      261002741      590138748      247486618
     80.00000000     -361194060     -551138587     -114148623      437349593
     84.00000000      484633324      -15117657     -482709411     -398560959
     88.00000000      132121500      499215178      298633652     -234146390
     92.00000000     -488631003     -188200154      316861760      451464254
     96.00000000       77568353     -375463447     -394685438       27626873
    100.00000000      409238977      318634290     -125535859     -417981345
    104.00000000     -231687432      209553438      404647971      138866364
    108.00000000     -275170437     -370082399      -46277074      320157022
    112.00000000      317813982      -42767493     -344203100     -254214116
    116.00000000      121230714      349659963      180310810     -188025771
    120.00000000     -334720646     -103421084      240422848      304017151
    124.00000000       25680848     -275193919     -258750886       47150075
    128.00000000      293211183      202076781     -112640231     -294316772
    132.00000000     -139098776      167833222      279067054       72432098
    136.00000000     -209798367     -249813576       -7361466      237359556
    140.00000000      209591214      -53972901     -249299485     -161069517
    144.00000000      107285811      246342400      105127673     -151972410
    148.00000000     -230683577      -48254413      185651095      202286686
    152.00000000       -8701948     -205375988     -165532065       59745932
    156.00000000      212550400      120909255     -104766537     -207256736
    160.00000000      -73363517      139930987      190647168       24695907
    164.00000000     -163719402     -163382337       22241095      178765073
    168.00000000      130600787      -64922622     -179792828      -90779546
    172.00000000      100648633      172274626       48216518     -127477594
    176.00000000     -153823482       -6355004      145468567      128364759
    180.00000000      -32733324     -153991360      -97393652       67324719
    184.00000000      151547782       62116599      -94637486     -141358090
    188.00000000      -26485397      114724567      122895898       -8301487
    192.00000000     -126133908      -98823207       40622712      129419146
    196.00000000       70808946      -67234982     -124300060      -40846582
    200.00000000       87066631      113236279       10941491     -101797002
    204.00000000      -95815485       17548618      109159634       74369612
    208.00000000      -43365148     -109086820      -49639995       63983465
    212.00000000      102389463       24370539      -79012998      -90766692
    216.00000000         851086       87860892       74470845      -23862788
    220.00000000      -91977349      -54930494       44012556       90163601
    224.00000000       34065684      -59864974      -82622708      -12495228
    228.00000000       71157578       70642908       -8929922      -77170837
    232.00000000      -55692386       27078372       78252442       39058676
    236.00000000      -42763874      -74628053      -20540837       54884911
    240.00000000       66629607        2351270      -62965964      -56033291
    244.00000000       13390397       66077701       42522892      -29415329
    248.00000000      -65724515      -26993482       41595260       60815906
    252.00000000       11635394      -50444726      -53006888        3646970
    256.00000000       55624689       42387041      -17518087      -57014815
    260.00000000      -30363752       30026514       54765517       16960751
    264.00000000      -38951180      -49158755       -3778337       44736441
    268.00000000       41788839       -8523451      -47795391      -32333074
    272.00000000       19944080       47743240       21328634      -29230467
    276.00000000      -45107240      -10165808       35962714       39104417
    280.00000000       -1096718      -39473563      -31824579       11691637
    284.00000000       41501997       23330973      -20290562      -39949088
    288.00000000      -13933533       26705526       36430952        4072201
    292.00000000      -32199291      -31439538        5290861       34219254
    296.00000000       24405411      -13312623      -34458653      -16406987
    300.00000000       19784870       32707570        8196448      -25015308
    304.00000000      -28920019        -397959       28640129       23837341
    308.00000000       -7528197      -29708935      -17728861       13665390
    312.00000000       29111896       10707166      -18913735      -26830511
    316.00000000       -3693316       22944809       23329929       -3008636
    320.00000000      -24529420      -18233894        9165267       25146400
    324.00000000       12034334      -14387916      -23611221       -6355168
    328.00000000       18281746       21277516         203199      -20667795
    332.00000000      -17171537        5323308       21438768       12562311
    336.00000000      -10222629      -21010887       -7531053       13827416
    340.00000000       19376429        2449242      -16382616      -16364866
    344.00000000        2763990       17824144       12684984       -7259466
    348.00000000      -17809867       -8242219       10842523       16656439
    352.00000000        3565785      -13676691      -14494656         647538
    356.00000000       15056914       11720985       -4555673      -15611300
    360.00000000       -8358121        7935533       14909957        4332783
